Time,orderer.dwntp.com:8443 (K),peer0.org1.dwntp.com:9443 (K),peer1.org1.dwntp.com:9443 (K),peer10.org1.dwntp.com:9443 (K),peer11.org1.dwntp.com:9443 (K),peer12.org1.dwntp.com:9443 (K),peer13.org1.dwntp.com:9443 (K),peer14.org1.dwntp.com:9443 (K),peer15.org1.dwntp.com:9443 (K),peer2.org1.dwntp.com:9443 (K),peer3.org1.dwntp.com:9443 (K),peer4.org1.dwntp.com:9443 (K),peer5.org1.dwntp.com:9443 (K),peer6.org1.dwntp.com:9443 (K),peer7.org1.dwntp.com:9443 (K),peer8.org1.dwntp.com:9443 (K),peer9.org1.dwntp.com:9443 (K)
0,2.41,2.41,2.41,,,,,,,2.41,2.41,2.41,2.41,2.41,2.41,,
5,2.41,2.41,2.41,,,,,,,2.41,2.41,2.41,2.41,2.41,2.41,,
10,2.41,2.41,2.41,,,,,,,2.41,2.41,2.41,2.41,2.41,2.41,,
15,2.52,2.43,2.46,,,,,,,2.45,2.52,2.51,2.44,2.46,2.49,,
20,2.75,2.61,2.67,,,,,,,2.65,2.74,2.73,2.62,2.67,2.70,,
25,2.98,2.84,2.90,,,,,,,2.88,2.97,2.96,2.85,2.90,2.93,,
30,3.21,3.07,3.13,,,,,,,3.11,3.20,3.18,3.08,3.12,3.16,,
35,3.44,3.30,3.36,,,,,,,3.34,3.43,3.41,3.31,3.35,3.39,,
40,3.67,3.53,3.59,,,,,,,3.57,3.66,3.64,3.54,3.58,3.62,,
45,3.90,3.76,3.82,,,,,,,3.80,3.89,3.87,3.77,3.81,3.85,,
50,4.13,3.99,4.05,,,,,,,4.03,4.12,4.11,4,4.04,4.08,,
55,4.36,4.22,4.28,,,,,,,4.26,4.35,4.34,4.23,4.28,4.31,,
60,4.62,4.46,4.53,,,,,,,4.51,4.60,4.59,4.48,4.52,4.56,,
65,4.87,4.72,4.78,,,,,,,4.76,4.86,4.84,4.73,4.78,4.81,,
70,5.12,4.97,5.04,,,,,,,5.02,5.11,5.10,4.99,5.03,5.07,,
75,5.38,5.22,5.29,,,,,,,5.27,5.37,5.35,5.24,5.29,5.32,,
80,5.63,5.48,5.54,,,,,,,5.52,5.62,5.61,5.49,5.54,5.58,,
85,5.89,5.73,5.80,,,,,,,5.78,5.88,5.86,5.75,5.80,5.83,,
90,6.14,5.99,6.05,,,,,,,6.04,6.13,6.12,6.00,6.05,6.09,,
95,6.40,6.24,6.31,,,,,,,6.29,6.39,6.37,6.26,6.30,6.34,,
100,6.67,6.50,6.57,,,,,,,6.55,6.66,6.64,6.52,6.57,6.61,,
105,6.95,6.78,6.85,,,,,,,6.83,6.94,6.92,6.79,6.85,6.89,,
110,7.23,7.06,7.13,,,,,,,7.11,7.22,7.20,7.07,7.13,7.17,,
115,7.51,7.34,7.41,,,,,,,7.39,7.50,7.48,7.36,7.41,7.45,,
120,7.79,7.62,7.69,,,,,,,7.67,7.78,7.76,7.64,7.69,7.73,,
125,8.07,7.90,7.97,,,,,,,7.95,8.06,8.04,7.92,7.97,8.01,,
130,8.35,8.18,8.26,,,,,,,8.23,8.34,8.33,8.20,8.25,8.29,,
135,8.64,8.46,8.54,,,,,,,8.52,8.62,8.61,8.48,8.53,8.57,,
140,8.98,8.76,8.85,,,,,,,8.82,8.97,8.95,8.78,8.85,8.90,,
145,9.36,9.13,9.23,,,,,,,9.20,9.35,9.33,9.15,9.22,9.28,,
150,9.74,9.48,9.61,,,,,,,9.58,9.72,9.71,9.53,9.61,9.66,,
155,10.1,9.85,9.98,,,,,,,9.95,10.1,10.1,9.91,9.97,10.0,,
160,10.5,10.2,10.4,,,,,,,10.3,10.5,10.4,10.3,10.4,10.4,,
165,10.9,10.6,10.7,,,,,,,10.7,10.8,10.8,10.7,10.7,10.8,,
170,11.2,11.0,11.1,,,,,,,11.1,11.2,11.2,11.0,11.1,11.2,,
175,11.6,11.4,11.5,,,,,,,11.5,11.6,11.6,11.4,11.5,11.5,,
180,12.0,11.7,11.9,,,,,,,11.8,12.0,12.0,11.8,11.9,11.9,,
185,12.4,12.1,12.2,,,,,,,12.2,12.4,12.3,12.2,12.2,12.3,,
190,12.8,12.5,12.6,,,,,,,12.6,12.7,12.7,12.5,12.6,12.7,,
195,13.1,12.9,13,,,,,,,13.0,13.1,13.1,12.9,13.0,13.0,,
200,13.5,13.3,13.4,,,,,,,13.4,13.5,13.5,13.3,13.4,13.4,,
205,13.9,13.6,13.8,,,,,,,13.7,13.9,13.8,13.7,13.8,13.8,,
210,14.3,14.0,14.1,,,,,,,14.1,14.2,14.2,14.1,14.1,14.2,,
215,14.6,14.3,14.5,,,,,,,14.5,14.6,14.6,14.4,14.5,14.5,,
220,15.0,14.7,14.9,,,,,,,14.8,15.0,15.0,14.8,14.9,14.9,,
225,15.4,15.1,15.2,,,,,,,15.2,15.3,15.3,15.2,15.2,15.3,,
230,15.7,15.4,15.6,,,,,,,15.6,15.7,15.7,15.5,15.6,15.7,,
235,16.1,15.8,16.0,,,,,,,16.0,16.1,16.1,15.9,16.0,16.0,,
240,16.5,16.2,16.3,,,,,,,16.3,16.5,16.4,16.3,16.3,16.4,,
245,16.8,16.6,16.7,,,,,,,16.7,16.8,16.8,16.6,16.7,16.8,,
250,17.2,16.9,17.1,,,,,,,17.1,17.2,17.2,17.0,17.1,17.1,,
255,17.6,17.3,17.5,,,,,,,17.4,17.6,17.6,17.4,17.5,17.5,,
260,18.0,17.7,17.8,,,,,,,17.8,17.9,17.9,17.8,17.8,17.9,,
265,18.3,18.1,18.2,,,,,,,18.2,18.3,18.3,18.1,18.2,18.3,,
270,18.7,18.4,18.6,,,,,,,18.5,18.7,18.7,18.5,18.6,18.6,,
275,19.1,18.8,18.9,,,,,,,18.9,19.0,19.0,18.9,18.9,19.0,,
280,19.4,19.1,19.3,,,,,,,19.3,19.4,19.4,19.2,19.3,19.3,,
285,19.8,19.5,19.7,,,,,,,19.6,19.8,19.8,19.6,19.7,19.7,,
290,20.2,19.8,20.0,,,,,,,20.0,20.1,20.1,20.0,20.0,20.1,,
295,20.5,20.2,20.4,,,,,,,20.4,20.5,20.5,20.3,20.4,20.4,,
300,20.9,20.5,20.7,,,,,,,20.7,20.9,20.8,20.7,20.7,20.8,,
305,21.2,20.9,21.1,,,,,,,21.1,21.2,21.2,21.0,21.1,21.1,,
310,21.6,21.3,21.5,,,,,,,21.4,21.6,21.6,21.4,21.5,21.5,,
315,21.9,21.7,21.8,,,,,,,21.8,21.9,21.8,21.7,21.8,21.8,,
320,21.9,21.9,21.9,,,,,,,21.9,21.9,21.9,21.9,21.9,21.9,,
325,21.9,21.9,21.9,,,,,,,21.9,21.9,21.9,21.9,21.9,21.9,,
330,21.9,21.9,21.9,,,,,,,21.9,21.9,21.9,21.9,21.9,21.9,,
335,21.9,21.9,21.9,,,,,,,21.9,21.9,21.9,21.9,21.9,21.9,,
340,21.9,21.9,21.9,,,,,,,21.9,21.9,21.9,21.9,21.9,21.9,,
345,21.9,21.9,21.9,,,,,,,21.9,21.9,21.9,21.9,21.9,21.9,,
